# === DATA DESCRIPTION FILE ======================================================
#
# CAUTION - Investigational device.
# Limited by Federal Law to investigational use.
#
#
# CLINICAL TRYOUT             Research image export tool     V4.2
#
# === GENERAL INFORMATION ========================================================
#
.    Protocol name                      :   WIP Bold_Rest SENSE
.    Series Type                        :   Image   MRSERIES
.    Acquisition nr                     :   10
.    Reconstruction nr                  :   1
.    Scan Duration [sec]                :   434
.    Max. number of cardiac phases      :   1
.    Max. number of echoes              :   1
.    Max. number of slices/locations    :   37
.    Max. number of dynamics            :   210
.    Max. number of mixes               :   1
.    Patient position                   :   Head First Supine
.    Preparation direction              :   Anterior-Posterior
.    Technique                          :   FEEPI
.    Scan resolution  (x, y)            :   80  80
.    Scan mode                          :   MS
.    Repetition time [ms]               :   2000.002  
.    FOV (ap,fh,rl) [mm]                :   240.000  147.000  240.000
.    Water Fat shift [pixels]           :   11.360
.    Angulation midslice(ap,fh,rl)[degr]:   -3.594  2.696  7.615
.    Off Centre midslice(ap,fh,rl) [mm] :   -12.496  23.793  -5.957
.    Flow compensation <0=no 1=yes> ?   :   0
.    Presaturation     <0=no 1=yes> ?   :   0
.    Phase encoding velocity [cm/sec]   :   0.000000  0.000000  0.000000
.    MTC               <0=no 1=yes> ?   :   0
.    SPIR              <0=no 1=yes> ?   :   1
.    EPI factor        <0,1=no EPI>     :   43
.    Dynamic scan      <0=no 1=yes> ?   :   1
.    Diffusion         <0=no 1=yes> ?   :   0
.    Diffusion echo time [ms]           :   0.0000
.    Max. number of diffusion values    :   1
.    Max. number of gradient orients    :   1
.    Number of label types   <0=no ASL> :   0
#
# === PIXEL VALUES =============================================================
#  PV = pixel value in REC file, FP = floating point value, DV = displayed value on console
#  RS = rescale slope,           RI = rescale intercept,    SS = scale slope
#  DV = PV * RS + RI             FP = DV / (RS * SS)
#
# === IMAGE INFORMATION DEFINITION =============================================
#  The rest of this file contains ONE line per image, this line contains the following information:
#
#  slice number                             (integer)
#  echo number                              (integer)
#  dynamic scan number                      (integer)
#  cardiac phase number                     (integer)
#  image_type_mr                            (integer)
#  scanning sequence                        (integer)
#  index in REC file (in images)            (integer)
#  image pixel size (in bits)               (integer)
#  scan percentage                          (integer)
#  recon resolution (x y)                   (2*integer)
#  rescale intercept                        (float)
#  rescale slope                            (float)
#  scale slope                              (float)
#  window center                            (integer)
#  window width                             (integer)
#  image angulation (ap,fh,rl in degrees )  (3*float)
#  image offcentre (ap,fh,rl in mm )        (3*float)
#  slice thickness (in mm )                 (float)
#  slice gap (in mm )                       (float)
#  image_display_orientation                (integer)
#  slice orientation ( TRA/SAG/COR )        (integer)
#  fmri_status_indication                   (integer)
#  image_type_ed_es  (end diast/end syst)   (integer)
#  pixel spacing (x,y) (in mm)              (2*float)
#  echo_time                                (float)
#  dyn_scan_begin_time                      (float)
#  trigger_time                             (float)
#  diffusion_b_factor                       (float)
#  number of averages                       (integer)
#  image_flip_angle (in degrees)            (float)
#  cardiac frequency   (bpm)                (integer)
#  minimum RR-interval (in ms)              (integer)
#  maximum RR-interval (in ms)              (integer)
#  TURBO factor  <0=no turbo>               (integer)
#  Inversion delay (in ms)                  (float)
#  diffusion b value number    (imagekey!)  (integer)
#  gradient orientation number (imagekey!)  (integer)
#  contrast type                            (string)
#  diffusion anisotropy type                (string)
#  diffusion (ap, fh, rl)                   (3*float)
#  label type (ASL)            (imagekey!)  (integer)
#
# === IMAGE INFORMATION ==========================================================
#  sl ec  dyn ph ty    idx pix scan% rec size                (re)scale              window        angulation              offcentre        thick   gap   info      spacing     echo     dtime   ttime    diff  avg  flip    freq   RR-int  turbo delay b grad cont anis         diffusion       L.ty

  1   1    1  1 0 2     0  16   100   80   80     0.00000   1.35751 6.30026e-004  1070  1860  -3.59   2.70   7.61   -2.97  -47.43   -1.44  3.000  1.000 0 1 1 2  3.000  3.000  30.00    0.00     0.00    0.00   1   75.00     0    0    0    43   0.0  1   1    8    0   0.000    0.000    0.000  1
  2   1    1  1 0 2     1  16   100   80   80     0.00000   1.35751 6.30026e-004   818  1421  -3.59   2.70   7.61   -3.50  -43.47   -1.69  3.000  1.000 0 1 1 2  3.000  3.000  30.00    0.00     0.00    0.00   1   75.00     0    0    0    43   0.0  1   1    8    0   0.000    0.000    0.000  1
  3   1    1  1 0 2     2  16   100   80   80     0.00000   1.35751 6.30026e-004   713  1239  -3.59   2.70   7.61   -4.03  -39.52   -1.95  3.000  1.000 0 1 1 2  3.000  3.000  30.00    0.00     0.00    0.00   1   75.00     0    0    0    43   0.0  1   1    8    0   0.000    0.000    0.000  1
  4   1    1  1 0 2     3  16   100   80   80     0.00000   1.35751 6.30026e-004   835  1451  -3.59   2.70   7.61   -4.56  -35.56   -2.20  3.000  1.000 0 1 1 2  3.000  3.000  30.00    0.00     0.00    0.00   1   75.00     0    0    0    43   0.0  1   1    8    0   0.000    0.000    0.000  1
  5   1    1  1 0 2     4  16   100   80   80     0.00000   1.35751 6.30026e-004   896  1558  -3.59   2.70   7.61   -5.09  -31.60   -2.45  3.000  1.000 0 1 1 2  3.000  3.000  30.00    0.00     0.00    0.00   1   75.00     0    0    0    43   0.0  1   1    8    0   0.000    0.000    0.000  1
  6   1    1  1 0 2     5  16   100   80   80     0.00000   1.35751 6.30026e-004   840  1459  -3.59   2.70   7.61   -5.62  -27.65   -2.70  3.000  1.000 0 1 1 2  3.000  3.000  30.00    0.00     0.00    0.00   1   75.00     0    0    0    43   0.0  1   1    8    0   0.000    0.000    0.000  1
  7   1    1  1 0 2     6  16   100   80   80     0.00000   1.35751 6.30026e-004   788  1370  -3.59   2.70   7.61   -6.15  -23.69   -2.95  3.000  1.000 0 1 1 2  3.000  3.000  30.00    0.00     0.00    0.00   1   75.00     0    0    0    43   0.0  1   1    8    0   0.000    0.000    0.000  1
  8   1    1  1 0 2     7  16   100   80   80     0.00000   1.35751 6.30026e-004   852  1481  -3.59   2.70   7.61   -6.68  -19.73   -3.20  3.000  1.000 0 1 1 2  3.000  3.000  30.00    0.00     0.00    0.00   1   75.00     0    0    0    43   0.0  1   1    8    0   0.000    0.000    0.000  1
  9   1    1  1 0 2     8  16   100   80   80     0.00000   1.35751 6.30026e-004   887  1542  -3.59   2.70   7.61   -7.21  -15.78   -3.45  3.000  1.000 0 1 1 2  3.000  3.000  30.00    0.00     0.00    0.00   1   75.00     0    0    0    43   0.0  1   1    8    0   0.000    0.000    0.000  1
 10   1    1  1 0 2     9  16   100   80   80     0.00000   1.35751 6.30026e-004   885  1538  -3.59   2.70   7.61   -7.74  -11.82   -3.70  3.000  1.000 0 1 1 2  3.000  3.000  30.00    0.00     0.00    0.00   1   75.00     0    0    0    43   0.0  1   1    8    0   0.000    0.000    0.000  1
 11   1    1  1 0 2    10  16   100   80   80     0.00000   1.35751 6.30026e-004   948  1647  -3.59   2.70   7.61   -8.26   -7.86   -3.95  3.000  1.000 0 1 1 2  3.000  3.000  30.00    0.00     0.00    0.00   1   75.00     0    0    0    43   0.0  1   1    8    0   0.000    0.000    0.000  1
 12   1    1  1 0 2    11  16   100   80   80     0.00000   1.35751 6.30026e-004   941  1635  -3.59   2.70   7.61   -8.79   -3.91   -4.20  3.000  1.000 0 1 1 2  3.000  3.000  30.00    0.00     0.00    0.00   1   75.00     0    0    0    43   0.0  1   1    8    0   0.000    0.000    0.000  1
 13   1    1  1 0 2    12  16   100   80   80     0.00000   1.35751 6.30026e-004   942  1638  -3.59   2.70   7.61   -9.32    0.05   -4.45  3.000  1.000 0 1 1 2  3.000  3.000  30.00    0.00     0.00    0.00   1   75.00     0    0    0    43   0.0  1   1    8    0   0.000    0.000    0.000  1
 14   1    1  1 0 2    13  16   100   80   80     0.00000   1.35751 6.30026e-004   937  1629  -3.59   2.70   7.61   -9.85    4.01   -4.70  3.000  1.000 0 1 1 2  3.000  3.000  30.00    0.00     0.00    0.00   1   75.00     0    0    0    43   0.0  1   1    8    0   0.000    0.000    0.000  1
 15   1    1  1 0 2    14  16   100   80   80     0.00000   1.35751 6.30026e-004   866  1505  -3.59   2.70   7.61  -10.38    7.97   -4.95  3.000  1.000 0 1 1 2  3.000  3.000  30.00    0.00     0.00    0.00   1   75.00     0    0    0    43   0.0  1   1    8    0   0.000    0.000    0.000  1
 16   1    1  1 0 2    15  16   100   80   80     0.00000   1.35751 6.30026e-004   821  1427  -3.59   2.70   7.61  -10.91   11.92   -5.20  3.000  1.000 0 1 1 2  3.000  3.000  30.00    0.00     0.00    0.00   1   75.00     0    0    0    43   0.0  1   1    8    0   0.000    0.000    0.000  1
 17   1    1  1 0 2    16  16   100   80   80     0.00000   1.35751 6.30026e-004   813  1414  -3.59   2.70   7.61  -11.44   15.88   -5.46  3.000  1.000 0 1 1 2  3.000  3.000  30.00    0.00     0.00    0.00   1   75.00     0    0    0    43   0.0  1   1    8    0   0.000    0.000    0.000  1
 18   1    1  1 0 2    17  16   100   80   80     0.00000   1.35751 6.30026e-004   862  1498  -3.59   2.70   7.61  -11.97   19.84   -5.71  3.000  1.000 0 1 1 2  3.000  3.000  30.00    0.00     0.00    0.00   1   75.00     0    0    0    43   0.0  1   1    8    0   0.000    0.000    0.000  1
 19   1    1  1 0 2    18  16   100   80   80     0.00000   1.35751 6.30026e-004   931  1618  -3.59   2.70   7.61  -12.50   23.79   -5.96  3.000  1.000 0 1 1 2  3.000  3.000  30.00    0.00     0.00    0.00   1   75.00     0    0    0    43   0.0  1   1    8    0   0.000    0.000    0.000  1
 20   1    1  1 0 2    19  16   100   80   80     0.00000   1.35751 6.30026e-004  1006  1749  -3.59   2.70   7.61  -13.03   27.75   -6.21  3.000  1.000 0 1 1 2  3.000  3.000  30.00    0.00     0.00    0.00   1   75.00     0    0    0    43   0.0  1   1    8    0   0.000    0.000    0.000  1
 21   1    1  1 0 2    20  16   100   80   80     0.00000   1.35751 6.30026e-004   985  1712  -3.59   2.70   7.61  -13.55   31.71   -6.46  3.000  1.000 0 1 1 2  3.000  3.000  30.00    0.00     0.00    0.00   1   75.00     0    0    0    43   0.0  1   1    8    0   0.000    0.000    0.000  1
 22   1    1  1 0 2    21  16   100   80   80     0.00000   1.35751 6.30026e-004   995  1730  -3.59   2.70   7.61  -14.08   35.66   -6.71  3.000  1.000 0 1 1 2  3.000  3.000  30.00    0.00     0.00    0.00   1   75.00     0    0    0    43   0.0  1   1    8    0   0.000    0.000    0.000  1
 23   1    1  1 0 2    22  16   100   80   80     0.00000   1.35751 6.30026e-004   977  1699  -3.59   2.70   7.61  -14.61   39.62   -6.96  3.000  1.000 0 1 1 2  3.000  3.000  30.00    0.00     0.00    0.00   1   75.00     0    0    0    43   0.0  1   1    8    0   0.000    0.000    0.000  1
 24   1    1  1 0 2    23  16   100   80   80     0.00000   1.35751 6.30026e-004   726  1263  -3.59   2.70   7.61  -15.14   43.58   -7.21  3.000  1.000 0 1 1 2  3.000  3.000  30.00    0.00     0.00    0.00   1   75.00     0    0    0    43   0.0  1   1    8    0   0.000    0.000    0.000  1
 25   1    1  1 0 2    24  16   100   80   80     0.00000   1.35751 6.30026e-004   781  1357  -3.59   2.70   7.61  -15.67   47.53   -7.46  3.000  1.000 0 1 1 2  3.000  3.000  30.00    0.00     0.00    0.00   1   75.00     0    0    0    43   0.0  1   1    8    0   0.000    0.000    0.000  1
 26   1    1  1 0 2    25  16   100   80   80     0.00000   1.35751 6.30026e-004   795  1382  -3.59   2.70   7.61  -16.20   51.49   -7.71  3.000  1.000 0 1 1 2  3.000  3.000  30.00    0.00     0.00    0.00   1   75.00     0    0    0    43   0.0  1   1    8    0   0.000    0.000    0.000  1
 27   1    1  1 0 2    26  16   100   80   80     0.00000   1.35751 6.30026e-004   735  1277  -3.59   2.70   7.61  -16.73   55.45   -7.96  3.000  1.000 0 1 1 2  3.000  3.000  30.00    0.00     0.00    0.00   1   75.00     0    0    0    43   0.0  1   1    8    0   0.000    0.000    0.000  1
 28   1    1  1 0 2    27  16   100   80   80     0.00000   1.35751 6.30026e-004   795  1383  -3.59   2.70   7.61  -17.26   59.41   -8.21  3.000  1.000 0 1 1 2  3.000  3.000  30.00    0.00     0.00    0.00   1   75.00     0    0    0    43   0.0  1   1    8    0   0.000    0.000    0.000  1
 29   1    1  1 0 2    28  16   100   80   80     0.00000   1.35751 6.30026e-004   796  1384  -3.59   2.70   7.61  -17.79   63.36   -8.46  3.000  1.000 0 1 1 2  3.000  3.000  30.00    0.00     0.00    0.00   1   75.00     0    0    0    43   0.0  1   1    8    0   0.000    0.000    0.000  1
 30   1    1  1 0 2    29  16   100   80   80     0.00000   1.35751 6.30026e-004   823  1431  -3.59   2.70   7.61  -18.32   67.32   -8.72  3.000  1.000 0 1 1 2  3.000  3.000  30.00    0.00     0.00    0.00   1   75.00     0    0    0    43   0.0  1   1    8    0   0.000    0.000    0.000  1
 31   1    1  1 0 2    30  16   100   80   80     0.00000   1.35751 6.30026e-004   751  1306  -3.59   2.70   7.61  -18.84   71.28   -8.97  3.000  1.000 0 1 1 2  3.000  3.000  30.00    0.00     0.00    0.00   1   75.00     0    0    0    43   0.0  1   1    8    0   0.000    0.000    0.000  1
 32   1    1  1 0 2    31  16   100   80   80     0.00000   1.35751 6.30026e-004   830  1443  -3.59   2.70   7.61  -19.37   75.23   -9.22  3.000  1.000 0 1 1 2  3.000  3.000  30.00    0.00     0.00    0.00   1   75.00     0    0    0    43   0.0  1   1    8    0   0.000    0.000    0.000  1
 33   1    1  1 0 2    32  16   100   80   80     0.00000   1.35751 6.30026e-004   733  1275  -3.59   2.70   7.61  -19.90   79.19   -9.47  3.000  1.000 0 1 1 2  3.000  3.000  30.00    0.00     0.00    0.00   1   75.00     0    0    0    43   0.0  1   1    8    0   0.000    0.000    0.000  1
 34   1    1  1 0 2    33  16   100   80   80     0.00000   1.35751 6.30026e-004   681  1183  -3.59   2.70   7.61  -20.43   83.15   -9.72  3.000  1.000 0 1 1 2  3.000  3.000  30.00    0.00     0.00    0.00   1   75.00     0    0    0    43   0.0  1   1    8    0   0.000    0.000    0.000  1
 35   1    1  1 0 2    34  16   100   80   80     0.00000   1.35751 6.30026e-004   677  1177  -3.59   2.70   7.61  -20.96   87.10   -9.97  3.000  1.000 0 1 1 2  3.000  3.000  30.00    0.00     0.00    0.00   1   75.00     0    0    0    43   0.0  1   1    8    0   0.000    0.000    0.000  1
 36   1    1  1 0 2    35  16   100   80   80     0.00000   1.35751 6.30026e-004   504   877  -3.59   2.70   7.61  -21.49   91.06  -10.22  3.000  1.000 0 1 1 2  3.000  3.000  30.00    0.00     0.00    0.00   1   75.00     0    0    0    43   0.0  1   1    8    0   0.000    0.000    0.000  1
 37   1    1  1 0 2    36  16   100   80   80     0.00000   1.35751 6.30026e-004    78   135  -3.59   2.70   7.61  -22.02   95.02  -10.47  3.000  1.000 0 1 1 2  3.000  3.000  30.00    0.00     0.00    0.00   1   75.00     0    0    0    43   0.0  1   1    8    0   0.000    0.000    0.000  1
  1   1    2  1 0 2    37  16   100   80   80     0.00000   1.35751 6.30026e-004   945  1643  -3.59   2.70   7.61   -2.97  -47.43   -1.44  3.000  1.000 0 1 2 2  3.000  3.000  30.00    2.00     0.00    0.00   1   75.00     0    0    0    43   0.0  1   1    8    0   0.000    0.000    0.000  1
  2   1    2  1 0 2    38  16   100   80   80     0.00000   1.35751 6.30026e-004   795  1383  -3.59   2.70   7.61   -3.50  -43.47   -1.69  3.000  1.000 0 1 2 2  3.000  3.000  30.00    2.00     0.00    0.00   1   75.00     0    0    0    43   0.0  1   1    8    0   0.000    0.000    0.000  1
  3   1    2  1 0 2    39  16   100   80   80     0.00000   1.35751 6.30026e-004   775  1347  -3.59   2.70   7.61   -4.03  -39.52   -1.95  3.000  1.000 0 1 2 2  3.000  3.000  30.00    2.00     0.00    0.00   1   75.00     0    0    0    43   0.0  1   1    8    0   0.000    0.000    0.000  1
  4   1    2  1 0 2    40  16   100   80   80     0.00000   1.35751 6.30026e-004   843  1465  -3.59   2.70   7.61   -4.56  -35.56   -2.20  3.000  1.000 0 1 2 2  3.000  3.000  30.00    2.00     0.00    0.00   1   75.00     0    0    0    43   0.0  1   1    8    0   0.000    0.000    0.000  1
  5   1    2  1 0 2    41  16   100   80   80     0.00000   1.35751 6.30026e-004   877  1524  -3.59   2.70   7.61   -5.09  -31.60   -2.45  3.000  1.000 0 1 2 2  3.000  3.000  30.00    2.00     0.00    0.00   1   75.00     0    0    0    43   0.0  1   1    8    0   0.000    0.000    0.000  1
  6   1    2  1 0 2    42  16   100   80   80     0.00000   1.35751 6.30026e-004   839  1459  -3.59   2.70   7.61   -5.62  -27.65   -2.70  3.000  1.000 0 1 2 2  3.000  3.000  30.00    2.00     0.00    0.00   1   75.00     0    0    0    43   0.0  1   1    8    0   0.000    0.000    0.000  1
  7   1    2  1 0 2    43  16   100   80   80     0.00000   1.35751 6.30026e-004   775  1347  -3.59   2.70   7.61   -6.15  -23.69   -2.95  3.000  1.000 0 1 2 2  3.000  3.000  30.00    2.00     0.00    0.00   1   75.00     0    0    0    43   0.0  1   1    8    0   0.000    0.000    0.000  1
  8   1    2  1 0 2    44  16   100   80   80     0.00000   1.35751 6.30026e-004   823  1431  -3.59   2.70   7.61   -6.68  -19.73   -3.20  3.000  1.000 0 1 2 2  3.000  3.000  30.00    2.00     0.00    0.00   1   75.00     0    0    0    43   0.0  1   1    8    0   0.000    0.000    0.000  1
  9   1    2  1 0 2    45  16   100   80   80     0.00000   1.35751 6.30026e-004   921  1601  -3.59   2.70   7.61   -7.21  -15.78   -3.45  3.000  1.000 0 1 2 2  3.000  3.000  30.00    2.00     0.00    0.00   1   75.00     0    0    0    43   0.0  1   1    8    0   0.000    0.000    0.000  1
 10   1    2  1 0 2    46  16   100   80   80     0.00000   1.35751 6.30026e-004   953  1657  -3.59   2.70   7.61   -7.74  -11.82   -3.70  3.000  1.000 0 1 2 2  3.000  3.000  30.00    2.00     0.00    0.00   1   75.00     0    0    0    43   0.0  1   1    8    0   0.000    0.000    0.000  1
 11   1    2  1 0 2    47  16   100   80   80     0.00000   1.35751 6.30026e-004   964  1676  -3.59   2.70   7.61   -8.26   -7.86   -3.95  3.000  1.000 0 1 2 2  3.000  3.000  30.00    2.00     0.00    0.00   1   75.00     0    0    0    43   0.0  1   1    8    0   0.000    0.000    0.000  1
 12   1    2  1 0 2    48  16   100   80   80     0.00000   1.35751 6.30026e-004   938  1631  -3.59   2.70   7.61   -8.79   -3.91   -4.20  3.000  1.000 0 1 2 2  3.000  3.000  30.00    2.00     0.00    0.00   1   75.00     0    0    0    43   0.0  1   1    8    0   0.000    0.000    0.000  1
 13   1    2  1 0 2    49  16   100   80   80     0.00000   1.35751 6.30026e-004   918  1596  -3.59   2.70   7.61   -9.32    0.05   -4.45  3.000  1.000 0 1 2 2  3.000  3.000  30.00    2.00     0.00    0.00   1   75.00     0    0    0    43   0.0  1   1    8    0   0.000    0.000    0.000  1
 14   1    2  1 0 2    50  16   100   80   80     0.00000   1.35751 6.30026e-004   889  1545  -3.59   2.70   7.61   -9.85    4.01   -4.70  3.000  1.000 0 1 2 2  3.000  3.000  30.00    2.00     0.00    0.00   1   75.00     0    0    0    43   0.0  1   1    8    0   0.000    0.000    0.000  1
 15   1    2  1 0 2    51  16   100   80   80     0.00000   1.35751 6.30026e-004   955  1661  -3.59   2.70   7.61  -10.38    7.97   -4.95  3.000  1.000 0 1 2 2  3.000  3.000  30.00    2.00     0.00    0.00   1   75.00     0    0    0    43   0.0  1   1    8    0   0.000    0.000    0.000  1
 16   1    2  1 0 2    52  16   100   80   80     0.00000   1.35751 6.30026e-004   861  1496  -3.59   2.70   7.61  -10.91   11.92   -5.20  3.000  1.000 0 1 2 2  3.000  3.000  30.00    2.00     0.00    0.00   1   75.00     0    0    0    43   0.0  1   1    8    0   0.000    0.000    0.000  1
 17   1    2  1 0 2    53  16   100   80   80     0.00000   1.35751 6.30026e-004   818  1422  -3.59   2.70   7.61  -11.44   15.88   -5.46  3.000  1.000 0 1 2 2  3.000  3.000  30.00    2.00     0.00    0.00   1   75.00     0    0    0    43   0.0  1   1    8    0   0.000    0.000    0.000  1
 18   1    2  1 0 2    54  16   100   80   80     0.00000   1.35751 6.30026e-004   855  1487  -3.59   2.70   7.61  -11.97   19.84   -5.71  3.000  1.000 0 1 2 2  3.000  3.000  30.00    2.00     0.00    0.00   1   75.00     0    0    0    43   0.0  1   1    8    0   0.000    0.000    0.000  1
 19   1    2  1 0 2    55  16   100   80   80     0.00000   1.35751 6.30026e-004   939  1632  -3.59   2.70   7.61  -12.50   23.79   -5.96  3.000  1.000 0 1 2 2  3.000  3.000  30.00    2.00     0.00    0.00   1   75.00     0    0    0    43   0.0  1   1    8    0   0.000    0.000    0.000  1
 20   1    2  1 0 2    56  16   100   80   80     0.00000   1.35751 6.30026e-004  1015  1764  -3.59   2.70   7.61  -13.03   27.75   -6.21  3.000  1.000 0 1 2 2  3.000  3.000  30.00    2.00     0.00    0.00   1   75.00     0    0    0    43   0.0  1   1    8    0   0.000    0.000    0.000  1
 21   1    2  1 0 2    57  16   100   80   80     0.00000   1.35751 6.30026e-004   982  1708  -3.59   2.70   7.61  -13.55   31.71   -6.46  3.000  1.000 0 1 2 2  3.000  3.000  30.00    2.00     0.00    0.00   1   75.00     0    0    0    43   0.0  1   1    8    0   0.000    0.000    0.000  1
 22   1    2  1 0 2    58  16   100   80   80     0.00000   1.35751 6.30026e-004   991  1723  -3.59   2.70   7.61  -14.08   35.66   -6.71  3.000  1.000 0 1 2 2  3.000  3.000  30.00    2.00     0.00    0.00   1   75.00     0    0    0    43   0.0  1   1    8    0   0.000    0.000    0.000  1
 23   1    2  1 0 2    59  16   100   80   80     0.00000   1.35751 6.30026e-004   985  1712  -3.59   2.70   7.61  -14.61   39.62   -6.96  3.000  1.000 0 1 2 2  3.000  3.000  30.00    2.00     0.00    0.00   1   75.00     0    0    0    43   0.0  1   1    8    0   0.000    0.000    0.000  1
 24   1    2  1 0 2    60  16   100   80   80     0.00000   1.35751 6.30026e-004   740  1286  -3.59   2.70   7.61  -15.14   43.58   -7.21  3.000  1.000 0 1 2 2  3.000  3.000  30.00    2.00     0.00    0.00   1   75.00     0    0    0    43   0.0  1   1    8    0   0.000    0.000    0.000  1
 25   1    2  1 0 2    61  16   100   80   80     0.00000   1.35751 6.30026e-004   783  1361  -3.59   2.70   7.61  -15.67   47.53   -7.46  3.000  1.000 0 1 2 2  3.000  3.000  30.00    2.00     0.00    0.00   1   75.00     0    0    0    43   0.0  1   1    8    0   0.000    0.000    0.000  1
 26   1    2  1 0 2    62  16   100   80   80     0.00000   1.35751 6.30026e-004   788  1371  -3.59   2.70   7.61  -16.20   51.49   -7.71  3.000  1.000 0 1 2 2  3.000  3.000  30.00    2.00     0.00    0.00   1   75.00     0    0    0    43   0.0  1   1    8    0   0.000    0.000    0.000  1
 27   1    2  1 0 2    63  16   100   80   80     0.00000   1.35751 6.30026e-004   733  1274  -3.59   2.70   7.61  -16.73   55.45   -7.96  3.000  1.000 0 1 2 2  3.000  3.000  30.00    2.00     0.00    0.00   1   75.00     0    0    0    43   0.0  1   1    8    0   0.000    0.000    0.000  1
 28   1    2  1 0 2    64  16   100   80   80     0.00000   1.35751 6.30026e-004   798  1388  -3.59   2.70   7.61  -17.26   59.41   -8.21  3.000  1.000 0 1 2 2  3.000  3.000  30.00    2.00     0.00    0.00   1   75.00     0    0    0    43   0.0  1   1    8    0   0.000    0.000    0.000  1
 29   1    2  1 0 2    65  16   100   80   80     0.00000   1.35751 6.30026e-004   794  1380  -3.59   2.70   7.61  -17.79   63.36   -8.46  3.000  1.000 0 1 2 2  3.000  3.000  30.00    2.00     0.00    0.00   1   75.00     0    0    0    43   0.0  1   1    8    0   0.000    0.000    0.000  1
 30   1    2  1 0 2    66  16   100   80   80     0.00000   1.35751 6.30026e-004   820  1425  -3.59   2.70   7.61  -18.32   67.32   -8.72  3.000  1.000 0 1 2 2  3.000  3.000  30.00    2.00     0.00    0.00   1   75.00     0    0    0    43   0.0  1   1    8    0   0.000    0.000    0.000  1
 31   1    2  1 0 2    67  16   100   80   80     0.00000   1.35751 6.30026e-004   748  1301  -3.59   2.70   7.61  -18.84   71.28   -8.97  3.000  1.000 0 1 2 2  3.000  3.000  30.00    2.00     0.00    0.00   1   75.00     0    0    0    43   0.0  1   1    8    0   0.000    0.000    0.000  1
 32   1    2  1 0 2    68  16   100   80   80     0.00000   1.35751 6.30026e-004   830  1442  -3.59   2.70   7.61  -19.37   75.23   -9.22  3.000  1.000 0 1 2 2  3.000  3.000  30.00    2.00     0.00    0.00   1   75.00     0    0    0    43   0.0  1   1    8    0   0.000    0.000    0.000  1
 33   1    2  1 0 2    69  16   100   80   80     0.00000   1.35751 6.30026e-004   734  1277  -3.59   2.70   7.61  -19.90   79.19   -9.47  3.000  1.000 0 1 2 2  3.000  3.000  30.00    2.00     0.00    0.00   1   75.00     0    0    0    43   0.0  1   1    8    0   0.000    0.000    0.000  1
 34   1    2  1 0 2    70  16   100   80   80     0.00000   1.35751 6.30026e-004   686  1192  -3.59   2.70   7.61  -20.43   83.15   -9.72  3.000  1.000 0 1 2 2  3.000  3.000  30.00    2.00     0.00    0.00   1   75.00     0    0    0    43   0.0  1   1    8    0   0.000    0.000    0.000  1
 35   1    2  1 0 2    71  16   100   80   80     0.00000   1.35751 6.30026e-004   667  1160  -3.59   2.70   7.61  -20.96   87.10   -9.97  3.000  1.000 0 1 2 2  3.000  3.000  30.00    2.00     0.00    0.00   1   75.00     0    0    0    43   0.0  1   1    8    0   0.000    0.000    0.000  1
 36   1    2  1 0 2    72  16   100   80   80     0.00000   1.35751 6.30026e-004   495   860  -3.59   2.70   7.61  -21.49   91.06  -10.22  3.000  1.000 0 1 2 2  3.000  3.000  30.00    2.00     0.00    0.00   1   75.00     0    0    0    43   0.0  1   1    8    0   0.000    0.000    0.000  1
 37   1    2  1 0 2    73  16   100   80   80     0.00000   1.35751 6.30026e-004    71   123  -3.59   2.70   7.61  -22.02   95.02  -10.47  3.000  1.000 0 1 2 2  3.000  3.000  30.00    2.00     0.00    0.00   1   75.00     0    0    0    43   0.0  1   1    8    0   0.000    0.000    0.000  1
  1   1    3  1 0 2    74  16   100   80   80     0.00000   1.35751 6.30026e-004  1097  1907  -3.59   2.70   7.61   -2.97  -47.43   -1.44  3.000  1.000 0 1 3 2  3.000  3.000  30.00    4.00     0.00    0.00   1   75.00     0    0    0    43   0.0  1   1    8    0   0.000    0.000    0.000  1
  2   1    3  1 0 2    75  16   100   80   80     0.00000   1.35751 6.30026e-004   855  1486  -3.59   2.70   7.61   -3.50  -43.47   -1.69  3.000  1.000 0 1 3 2  3.000  3.000  30.00    4.00     0.00    0.00   1   75.00     0    0    0    43   0.0  1   1    8    0   0.000    0.000    0.000  1
  3   1    3  1 0 2    76  16   100   80   80     0.00000   1.35751 6.30026e-004   761  1323  -3.59   2.70   7.61   -4.03  -39.52   -1.95  3.000  1.000 0 1 3 2  3.000  3.000  30.00    4.00     0.00    0.00   1   75.00     0    0    0    43   0.0  1   1    8    0   0.000    0.000    0.000  1
  4   1    3  1 0 2    77  16   100   80   80     0.00000   1.35751 6.30026e-004   817  1421  -3.59   2.70   7.61   -4.56  -35.56   -2.20  3.000  1.000 0 1 3 2  3.000  3.000  30.00    4.00     0.00    0.00   1   75.00     0    0    0    43   0.0  1   1    8    0   0.000    0.000    0.000  1
  5   1    3  1 0 2    78  16   100   80   80     0.00000   1.35751 6.30026e-004   813  1414  -3.59   2.70   7.61   -5.09  -31.60   -2.45  3.000  1.000 0 1 3 2  3.000  3.000  30.00    4.00     0.00    0.00   1   75.00     0    0    0    43   0.0  1   1    8    0   0.000    0.000    0.000  1
  6   1    3  1 0 2    79  16   100   80   80     0.00000   1.35751 6.30026e-004   847  1472  -3.59   2.70   7.61   -5.62  -27.65   -2.70  3.000  1.000 0 1 3 2  3.000  3.000  30.00    4.00     0.00    0.00   1   75.00     0    0    0    43   0.0  1   1    8    0   0.000    0.000    0.000  1
  7   1    3  1 0 2    80  16   100   80   80     0.00000   1.35751 6.30026e-004   777  1350  -3.59   2.70   7.61   -6.15  -23.69   -2.95  3.000  1.000 0 1 3 2  3.000  3.000  30.00    4.00     0.00    0.00   1   75.00     0    0    0    43   0.0  1   1    8    0   0.000    0.000    0.000  1
  8   1    3  1 0 2    81  16   100   80   80     0.00000   1.35751 6.30026e-004   845  1468  -3.59   2.70   7.61   -6.68  -19.73   -3.20  3.000  1.000 0 1 3 2  3.000  3.000  30.00    4.00     0.00    0.00   1   75.00     0    0    0    43   0.0  1   1    8    0   0.000    0.000    0.000  1
  9   1    3  1 0 2    82  16   100   80   80     0.00000   1.35751 6.30026e-004   914  1589  -3.59   2.70   7.61   -7.21  -15.78   -3.45  3.000  1.000 0 1 3 2  3.000  3.000  30.00    4.00     0.00    0.00   1   75.00     0    0    0    43   0.0  1   1    8    0   0.000    0.000    0.000  1
 10   1    3  1 0 2    83  16   100   80   80     0.00000   1.35751 6.30026e-004   934  1623  -3.59   2.70   7.61   -7.74  -11.82   -3.70  3.000  1.000 0 1 3 2  3.000  3.000  30.00    4.00     0.00    0.00   1   75.00     0    0    0    43   0.0  1   1    8    0   0.000    0.000    0.000  1
